Emittance (um),Beam Radius (um),Beam Radius Fraction
2.0,5.7561,1
2.028,5.7963,1
2.0561,5.8362,1
2.0841,5.8758,1
2.1121,5.9152,1
2.1401,5.9543,1
2.1682,5.9932,1
2.1962,6.0318,1
2.2242,6.0702,1
2.2523,6.1083,1
2.2803,6.1462,1
2.3083,6.1838,1
2.3363,6.2213,1
2.3644,6.2585,1
2.3924,6.2955,1
2.4204,6.3322,1
2.4484,6.3688,1
2.4765,6.4051,1
2.5045,6.4413,1
2.5325,6.4772,1
2.5606,6.513,1
2.5886,6.5485,1
2.6166,6.5839,1
2.6446,6.619,1
2.6727,6.654,1
2.7007,6.6888,1
2.7287,6.7234,1
2.7568,6.7579,1
2.7848,6.7921,1
2.8128,6.8262,1
2.8408,6.8602,1
2.8689,6.8939,1
2.8969,6.9275,1
2.9249,6.9609,1
2.953,6.9942,1
2.981,7.0273,1
3.009,7.0603,1
3.037,7.0931,1
3.0651,7.1258,1
3.0931,7.1583,1
3.1211,7.1906,1
3.1491,7.2228,1
3.1772,7.2549,1
3.2052,7.2868,1
3.2332,7.3186,1
3.2613,7.3503,1
3.2893,7.3818,1
3.3173,7.4132,1
3.3453,7.4444,1
3.3734,7.4755,1
3.4014,7.5065,1
3.4294,7.5374,1
3.4575,7.5681,1
3.4855,7.5988,1
3.5135,7.6292,1
3.5415,7.6596,1
3.5696,7.6899,1
3.5976,7.72,1
3.6256,7.75,1
3.6537,7.7799,1
3.6817,7.8097,1
3.7097,7.8394,1
3.7377,7.8689,1
3.7658,7.8984,1
3.7938,7.9277,1
3.8218,7.9569,1
3.8498,7.9861,1
3.8779,8.0151,1
3.9059,8.044,1
3.9339,8.0728,1
3.962,8.1015,1
3.99,8.1301,1
4.018,8.1586,1
4.046,8.187,1
4.0741,8.2153,1
4.1021,8.2435,1
4.1301,8.2717,1
4.1582,8.2997,1
4.1862,8.3276,1
4.2142,8.3554,1
4.2422,8.3832,1
4.2703,8.4108,1
4.2983,8.4384,1
4.3263,8.4658,1
4.3544,8.4932,1
4.3824,8.5205,1
4.4104,8.5477,1
4.4384,8.5748,1
4.4665,8.6019,1
4.4945,8.6288,1
4.5225,8.6557,1
4.5506,8.6825,1
4.5786,8.7092,1
4.6066,8.7358,1
4.6346,8.7623,1
4.6627,8.7888,1
4.6907,8.8151,1
4.7187,8.8414,1
4.7467,8.8677,1
4.7748,8.8938,1
4.8028,8.9199,1
4.8308,8.9459,1
4.8589,8.9718,1
4.8869,8.9976,1
4.9149,9.0234,1
4.9429,9.0491,1
4.971,9.0747,1
4.999,9.1002,1
5.027,9.1257,1
5.0551,9.1511,1
5.0831,9.1764,1
5.1111,9.2017,1
5.1391,9.2269,1
5.1672,9.252,1
5.1952,9.2771,1
5.2232,9.3021,1
5.2513,9.327,1
5.2793,9.3519,1
5.3073,9.3767,1
5.3353,9.4014,1
5.3634,9.426,1
5.3914,9.4506,1
5.4194,9.4752,1
5.4474,9.4996,1
5.4755,9.524,1
5.5035,9.5484,1
5.5315,9.5727,1
5.5596,9.5969,1
5.5876,9.6211,1
5.6156,9.6452,1
5.6436,9.6692,1
5.6717,9.6932,1
5.6997,9.7171,1
5.7277,9.741,1
5.7558,9.7648,1
5.7838,9.7885,1
5.8118,9.8122,1
5.8398,9.8358,1
5.8679,9.8594,1
5.8959,9.8829,1
5.9239,9.9064,1
5.952,9.9298,1
5.98,9.9532,1
6.008,9.9764,1
6.036,9.9997,1
6.0641,10.0229,1
6.0921,10.046,1
6.1201,10.0691,1
6.1481,10.0921,1
6.1762,10.1151,1
6.2042,10.138,1
6.2322,10.1609,1
6.2603,10.1837,1
6.2883,10.2065,1
6.3163,10.2292,1
6.3443,10.2519,1
6.3724,10.2745,1
6.4004,10.2971,1
6.4284,10.3196,1
6.4565,10.3421,1
6.4845,10.3645,1
6.5125,10.3869,1
6.5405,10.4092,1
6.5686,10.4315,1
6.5966,10.4537,1
6.6246,10.4759,1
6.6527,10.498,1
6.6807,10.5201,1
6.7087,10.5422,1
6.7367,10.5642,1
6.7648,10.5861,1
6.7928,10.608,1
6.8208,10.6299,1
6.8488,10.6517,1
6.8769,10.6735,1
6.9049,10.6952,1
6.9329,10.7169,1
6.961,10.7385,1
6.989,10.7601,1
7.017,10.7817,1
7.045,10.8032,1
7.0731,10.8247,1
7.1011,10.8461,1
7.1291,10.8675,1
7.1572,10.8888,1
7.1852,10.9101,1
7.2132,10.9314,1
7.2412,10.9526,1
7.2693,10.9738,1
7.2973,10.9949,1
7.3253,11.016,1
7.3534,11.0371,1
7.3814,11.0581,1
7.4094,11.0791,1
7.4374,11.1,1
7.4655,11.1209,1
7.4935,11.1417,1
7.5215,11.1626,1
7.5495,11.1833,1
7.5776,11.2041,1
7.6056,11.2248,1
7.6336,11.2454,1
7.6617,11.2661,1
7.6897,11.2867,1
7.7177,11.3072,1
7.7457,11.3277,1
7.7738,11.3482,1
7.8018,11.3686,1
7.8298,11.389,1
7.8579,11.4094,1
7.8859,11.4297,1
7.9139,11.45,1
7.9419,11.4703,1
7.97,11.4905,1
7.998,11.5107,1
8.026,11.5308,1
8.0541,11.551,1
8.0821,11.571,1
8.1101,11.5911,1
8.1381,11.6111,1
8.1662,11.6311,1
8.1942,11.651,1
8.2222,11.6709,1
8.2503,11.6908,1
8.2783,11.7106,1
8.3063,11.7305,1
8.3343,11.7502,1
8.3624,11.77,1
8.3904,11.7897,1
8.4184,11.8094,1
8.4464,11.829,1
8.4745,11.8486,1
8.5025,11.8682,1
8.5305,11.8877,1
8.5586,11.9072,1
8.5866,11.9267,1
8.6146,11.9462,1
8.6426,11.9656,1
8.6707,11.985,1
8.6987,12.0043,1
8.7267,12.0237,1
8.7548,12.0429,1
8.7828,12.0622,1
8.8108,12.0814,1
8.8388,12.1006,1
8.8669,12.1198,1
8.8949,12.139,1
8.9229,12.1581,1
8.951,12.1771,1
8.979,12.1962,1
9.007,12.2152,1
9.035,12.2342,1
9.0631,12.2532,1
9.0911,12.2721,1
9.1191,12.291,1
9.1471,12.3099,1
9.1752,12.3287,1
9.2032,12.3475,1
9.2312,12.3663,1
9.2593,12.3851,1
9.2873,12.4038,1
9.3153,12.4225,1
9.3433,12.4412,1
9.3714,12.4598,1
9.3994,12.4785,1
9.4274,12.497,1
9.4555,12.5156,1
9.4835,12.5341,1
9.5115,12.5527,1
9.5395,12.5711,1
9.5676,12.5896,1
9.5956,12.608,1
9.6236,12.6264,1
9.6517,12.6448,1
9.6797,12.6631,1
9.7077,12.6815,1
9.7357,12.6997,1
9.7638,12.718,1
9.7918,12.7363,1
9.8198,12.7545,1
9.8478,12.7727,1
9.8759,12.7908,1
9.9039,12.809,1
9.9319,12.8271,1
9.96,12.8452,1
9.988,12.8632,1
10.016,12.8813,1
10.044,12.8993,1
10.0721,12.9173,1
10.1001,12.9352,1
10.1281,12.9531,1
10.1562,12.9711,1
10.1842,12.9889,1
10.2122,13.0068,1
10.2402,13.0246,1
10.2683,13.0425,1
10.2963,13.0602,1
10.3243,13.078,1
10.3524,13.0957,1
10.3804,13.1135,1
10.4084,13.1312,1
10.4364,13.1488,1
10.4645,13.1665,1
10.4925,13.1841,1
10.5205,13.2017,1
10.5485,13.2193,1
10.5766,13.2368,1
10.6046,13.2543,1
10.6326,13.2718,1
10.6607,13.2893,1
10.6887,13.3068,1
10.7167,13.3242,1
10.7447,13.3416,1
10.7728,13.359,1
10.8008,13.3764,1
10.8288,13.3937,1
10.8569,13.4111,1
10.8849,13.4284,1
10.9129,13.4456,1
10.9409,13.4629,1
10.969,13.4801,1
10.997,13.4973,1
11.025,13.5145,1
11.0531,13.5317,1
11.0811,13.5488,1
11.1091,13.566,1
11.1371,13.5831,1
11.1652,13.6001,1
11.1932,13.6172,1
11.2212,13.6342,1
11.2492,13.6513,1
11.2773,13.6682,1
11.3053,13.6852,1
11.3333,13.7022,1
11.3614,13.7191,1
11.3894,13.736,1
11.4174,13.7529,1
11.4454,13.7698,1
11.4735,13.7866,1
11.5015,13.8035,1
11.5295,13.8203,1
11.5576,13.8371,1
11.5856,13.8538,1
11.6136,13.8706,1
11.6416,13.8873,1
11.6697,13.904,1
11.6977,13.9207,1
11.7257,13.9374,1
11.7538,13.954,1
11.7818,13.9706,1
11.8098,13.9872,1
11.8378,14.0038,1
11.8659,14.0204,1
11.8939,14.037,1
11.9219,14.0535,1
11.9499,14.07,1
11.978,14.0865,1
12.006,14.103,1
12.034,14.1194,1
12.0621,14.1358,1
12.0901,14.1523,1
12.1181,14.1686,1
12.1461,14.185,1
12.1742,14.2014,1
12.2022,14.2177,1
12.2302,14.234,1
12.2583,14.2503,1
12.2863,14.2666,1
12.3143,14.2829,1
12.3423,14.2991,1
12.3704,14.3154,1
12.3984,14.3316,1
12.4264,14.3478,1
12.4545,14.3639,1
12.4825,14.3801,1
12.5105,14.3962,1
12.5385,14.4123,1
12.5666,14.4284,1
12.5946,14.4445,1
12.6226,14.4606,1
12.6507,14.4766,1
12.6787,14.4926,1
12.7067,14.5087,1
12.7347,14.5247,1
12.7628,14.5406,1
12.7908,14.5566,1
12.8188,14.5725,1
12.8468,14.5884,1
12.8749,14.6044,1
12.9029,14.6202,1
12.9309,14.6361,1
12.959,14.652,1
12.987,14.6678,1
13.015,14.6836,1
13.043,14.6994,1
13.0711,14.7152,1
13.0991,14.731,1
13.1271,14.7467,1
13.1552,14.7625,1
13.1832,14.7782,1
13.2112,14.7939,1
13.2392,14.8096,1
13.2673,14.8252,1
13.2953,14.8409,1
13.3233,14.8565,1
13.3514,14.8721,1
13.3794,14.8877,1
13.4074,14.9033,1
13.4354,14.9189,1
13.4635,14.9344,1
13.4915,14.95,1
13.5195,14.9655,1
13.5475,14.981,1
13.5756,14.9965,1
13.6036,15.012,1
13.6316,15.0274,1
13.6597,15.0429,1
13.6877,15.0583,1
13.7157,15.0737,1
13.7437,15.0891,1
13.7718,15.1045,1
13.7998,15.1198,1
13.8278,15.1352,1
13.8559,15.1505,1
13.8839,15.1658,1
13.9119,15.1811,1
13.9399,15.1964,1
13.968,15.2117,1
13.996,15.2269,1
14.024,15.2422,1
14.0521,15.2574,1
14.0801,15.2726,1
14.1081,15.2878,1
14.1361,15.303,1
14.1642,15.3181,1
14.1922,15.3333,1
14.2202,15.3484,1
14.2482,15.3635,1
14.2763,15.3787,1
14.3043,15.3937,1
14.3323,15.4088,1
14.3604,15.4239,1
14.3884,15.4389,1
14.4164,15.4539,1
14.4444,15.469,1
14.4725,15.484,1
14.5005,15.4989,1
14.5285,15.5139,1
14.5566,15.5289,1
14.5846,15.5438,1
14.6126,15.5587,1
14.6406,15.5737,1
14.6687,15.5886,1
14.6967,15.6034,1
14.7247,15.6183,1
14.7528,15.6332,1
14.7808,15.648,1
14.8088,15.6629,1
14.8368,15.6777,1
14.8649,15.6925,1
14.8929,15.7073,1
14.9209,15.722,1
14.9489,15.7368,1
14.977,15.7515,1
15.005,15.7663,1
15.033,15.781,1
15.0611,15.7957,1
15.0891,15.8104,1
15.1171,15.8251,1
15.1451,15.8397,1
15.1732,15.8544,1
15.2012,15.869,1
15.2292,15.8836,1
15.2573,15.8982,1
15.2853,15.9128,1
15.3133,15.9274,1
15.3413,15.942,1
15.3694,15.9565,1
15.3974,15.9711,1
15.4254,15.9856,1
15.4535,16.0001,1
15.4815,16.0146,1
15.5095,16.0291,1
15.5375,16.0436,1
15.5656,16.0581,1
15.5936,16.0725,1
15.6216,16.087,1
15.6496,16.1014,1
15.6777,16.1158,1
15.7057,16.1302,1
15.7337,16.1446,1
15.7618,16.1589,1
15.7898,16.1733,1
15.8178,16.1877,1
15.8458,16.202,1
15.8739,16.2163,1
15.9019,16.2306,1
15.9299,16.2449,1
15.958,16.2592,1
15.986,16.2735,1
16.014,16.2877,1
16.042,16.302,1
16.0701,16.3162,1
16.0981,16.3304,1
16.1261,16.3447,1
16.1542,16.3589,1
16.1822,16.373,1
16.2102,16.3872,1
16.2382,16.4014,1
16.2663,16.4155,1
16.2943,16.4297,1
16.3223,16.4438,1
16.3504,16.4579,1
16.3784,16.472,1
16.4064,16.4861,1
16.4344,16.5002,1
16.4625,16.5142,1
16.4905,16.5283,1
16.5185,16.5423,1
16.5465,16.5563,1
16.5746,16.5704,1
16.6026,16.5844,1
16.6306,16.5984,1
16.6587,16.6123,1
16.6867,16.6263,1
16.7147,16.6403,1
16.7427,16.6542,1
16.7708,16.6681,1
16.7988,16.6821,1
16.8268,16.696,1
16.8549,16.7099,1
16.8829,16.7238,1
16.9109,16.7376,1
16.9389,16.7515,1
16.967,16.7654,1
16.995,16.7792,1
17.023,16.793,1
17.0511,16.8068,1
17.0791,16.8207,1
17.1071,16.8345,1
17.1351,16.8482,1
17.1632,16.862,1
17.1912,16.8758,1
17.2192,16.8895,1
17.2472,16.9033,1
17.2753,16.917,1
17.3033,16.9307,1
17.3313,16.9444,1
17.3594,16.9581,1
17.3874,16.9718,1
17.4154,16.9855,1
17.4434,16.9991,1
17.4715,17.0128,1
17.4995,17.0264,1
17.5275,17.0401,1
17.5556,17.0537,1
17.5836,17.0673,1
17.6116,17.0809,1
17.6396,17.0945,1
17.6677,17.108,1
17.6957,17.1216,1
17.7237,17.1352,1
17.7518,17.1487,1
17.7798,17.1622,1
17.8078,17.1758,1
17.8358,17.1893,1
17.8639,17.2028,1
17.8919,17.2163,1
17.9199,17.2297,1
17.9479,17.2432,1
17.976,17.2567,1
18.004,17.2701,1
18.032,17.2836,1
18.0601,17.297,1
18.0881,17.3104,1
18.1161,17.3238,1
18.1441,17.3372,1
18.1722,17.3506,1
18.2002,17.364,1
18.2282,17.3773,1
18.2563,17.3907,1
18.2843,17.404,1
18.3123,17.4174,1
18.3403,17.4307,1
18.3684,17.444,1
18.3964,17.4573,1
18.4244,17.4706,1
18.4525,17.4839,1
18.4805,17.4972,1
18.5085,17.5104,1
18.5365,17.5237,1
18.5646,17.5369,1
18.5926,17.5501,1
18.6206,17.5634,1
18.6486,17.5766,1
18.6767,17.5898,1
18.7047,17.603,1
18.7327,17.6162,1
18.7608,17.6293,1
18.7888,17.6425,1
18.8168,17.6557,1
18.8448,17.6688,1
18.8729,17.6819,1
18.9009,17.6951,1
18.9289,17.7082,1
18.957,17.7213,1
18.985,17.7344,1
19.013,17.7475,1
19.041,17.7605,1
19.0691,17.7736,1
19.0971,17.7867,1
19.1251,17.7997,1
19.1532,17.8127,1
19.1812,17.8258,1
19.2092,17.8388,1
19.2372,17.8518,1
19.2653,17.8648,1
19.2933,17.8778,1
19.3213,17.8908,1
19.3493,17.9037,1
19.3774,17.9167,1
19.4054,17.9297,1
19.4334,17.9426,1
19.4615,17.9555,1
19.4895,17.9685,1
19.5175,17.9814,1
19.5455,17.9943,1
19.5736,18.0072,1
19.6016,18.0201,1
19.6296,18.033,1
19.6577,18.0458,1
19.6857,18.0587,1
19.7137,18.0715,1
19.7417,18.0844,1
19.7698,18.0972,1
19.7978,18.11,1
19.8258,18.1228,1
19.8539,18.1357,1
19.8819,18.1484,1
19.9099,18.1612,1
19.9379,18.174,1
19.966,18.1868,1
19.994,18.1995,1
20.022,18.2123,1
20.0501,18.225,1
20.0781,18.2378,1
20.1061,18.2505,1
20.1341,18.2632,1
20.1622,18.2759,1
20.1902,18.2886,1
20.2182,18.3013,1
20.2462,18.314,1
20.2743,18.3267,1
20.3023,18.3393,1
20.3303,18.352,1
20.3584,18.3646,1
20.3864,18.3773,1
20.4144,18.3899,1
20.4424,18.4025,1
20.4705,18.4151,1
20.4985,18.4277,1
20.5265,18.4403,1
20.5546,18.4529,1
20.5826,18.4655,1
20.6106,18.4781,1
20.6386,18.4906,1
20.6667,18.5032,1
20.6947,18.5157,1
20.7227,18.5282,1
20.7508,18.5408,1
20.7788,18.5533,1
20.8068,18.5658,1
20.8348,18.5783,1
20.8629,18.5908,1
20.8909,18.6033,1
20.9189,18.6157,1
20.9469,18.6282,1
20.975,18.6407,1
21.003,18.6531,1
21.031,18.6656,1
21.0591,18.678,1
21.0871,18.6904,1
21.1151,18.7028,1
21.1431,18.7152,1
21.1712,18.7276,1
21.1992,18.74,1
21.2272,18.7524,1
21.2553,18.7648,1
21.2833,18.7772,1
21.3113,18.7895,1
21.3393,18.8019,1
21.3674,18.8142,1
21.3954,18.8266,1
21.4234,18.8389,1
21.4515,18.8512,1
21.4795,18.8635,1
21.5075,18.8758,1
21.5355,18.8881,1
21.5636,18.9004,1
21.5916,18.9127,1
21.6196,18.925,1
21.6476,18.9372,1
21.6757,18.9495,1
21.7037,18.9617,1
21.7317,18.974,1
21.7598,18.9862,1
21.7878,18.9984,1
21.8158,19.0106,1
21.8438,19.0228,1
21.8719,19.035,1
21.8999,19.0472,1
21.9279,19.0594,1
21.956,19.0716,1
21.984,19.0838,1
22.012,19.0959,1
22.04,19.1081,1
22.0681,19.1202,1
22.0961,19.1324,1
22.1241,19.1445,1
22.1522,19.1566,1
22.1802,19.1687,1
22.2082,19.1808,1
22.2362,19.1929,1
22.2643,19.205,1
22.2923,19.2171,1
22.3203,19.2292,1
22.3483,19.2413,1
22.3764,19.2533,1
22.4044,19.2654,1
22.4324,19.2774,1
22.4605,19.2895,1
22.4885,19.3015,1
22.5165,19.3135,1
22.5445,19.3255,1
22.5726,19.3375,1
22.6006,19.3495,1
22.6286,19.3615,1
22.6567,19.3735,1
22.6847,19.3855,1
22.7127,19.3975,1
22.7407,19.4094,1
22.7688,19.4214,1
22.7968,19.4333,1
22.8248,19.4453,1
22.8529,19.4572,1
22.8809,19.4692,1
22.9089,19.4811,1
22.9369,19.493,1
22.965,19.5049,1
22.993,19.5168,1
23.021,19.5287,1
23.049,19.5406,1
23.0771,19.5524,1
23.1051,19.5643,1
23.1331,19.5762,1
23.1612,19.588,1
23.1892,19.5999,1
23.2172,19.6117,1
23.2452,19.6236,1
23.2733,19.6354,1
23.3013,19.6472,1
23.3293,19.659,1
23.3574,19.6708,1
23.3854,19.6826,1
23.4134,19.6944,1
23.4414,19.7062,1
23.4695,19.718,1
23.4975,19.7297,1
23.5255,19.7415,1
23.5536,19.7533,1
23.5816,19.765,1
23.6096,19.7768,1
23.6376,19.7885,1
23.6657,19.8002,1
23.6937,19.8119,1
23.7217,19.8237,1
23.7497,19.8354,1
23.7778,19.8471,1
23.8058,19.8588,1
23.8338,19.8704,1
23.8619,19.8821,1
23.8899,19.8938,1
23.9179,19.9055,1
23.9459,19.9171,1
23.974,19.9288,1
24.002,19.9404,1
24.03,19.9521,1
24.0581,19.9637,1
24.0861,19.9753,1
24.1141,19.9869,1
24.1421,19.9986,1
24.1702,20.0102,1
24.1982,20.0218,1
24.2262,20.0334,1
24.2543,20.0449,1
24.2823,20.0565,1
24.3103,20.0681,1
24.3383,20.0797,1
24.3664,20.0912,1
24.3944,20.1028,1
24.4224,20.1143,1
24.4505,20.1258,1
24.4785,20.1374,1
24.5065,20.1489,1
24.5345,20.1604,1
24.5626,20.1719,1
24.5906,20.1834,1
24.6186,20.1949,1
24.6466,20.2064,1
24.6747,20.2179,1
24.7027,20.2294,1
24.7307,20.2409,1
24.7588,20.2523,1
24.7868,20.2638,1
24.8148,20.2753,1
24.8428,20.2867,1
24.8709,20.2981,1
24.8989,20.3096,1
24.9269,20.321,1
24.955,20.3324,1
24.983,20.3438,1
25.011,20.3552,1
25.039,20.3666,1
25.0671,20.378,1
25.0951,20.3894,1
25.1231,20.4008,1
25.1512,20.4122,1
25.1792,20.4236,1
25.2072,20.4349,1
25.2352,20.4463,1
25.2633,20.4576,1
25.2913,20.469,1
25.3193,20.4803,1
25.3473,20.4917,1
25.3754,20.503,1
25.4034,20.5143,1
25.4314,20.5256,1
25.4595,20.5369,1
25.4875,20.5482,1
25.5155,20.5595,1
25.5435,20.5708,1
25.5716,20.5821,1
25.5996,20.5934,1
25.6276,20.6046,1
25.6557,20.6159,1
25.6837,20.6272,1
25.7117,20.6384,1
25.7397,20.6497,1
25.7678,20.6609,1
25.7958,20.6721,1
25.8238,20.6834,1
25.8519,20.6946,1
25.8799,20.7058,1
25.9079,20.717,1
25.9359,20.7282,1
25.964,20.7394,1
25.992,20.7506,1
26.02,20.7618,1
26.048,20.773,1
26.0761,20.7841,1
26.1041,20.7953,1
26.1321,20.8065,1
26.1602,20.8176,1
26.1882,20.8288,1
26.2162,20.8399,1
26.2442,20.851,1
26.2723,20.8622,1
26.3003,20.8733,1
26.3283,20.8844,1
26.3564,20.8955,1
26.3844,20.9066,1
26.4124,20.9177,1
26.4404,20.9288,1
26.4685,20.9399,1
26.4965,20.951,1
26.5245,20.9621,1
26.5526,20.9732,1
26.5806,20.9842,1
26.6086,20.9953,1
26.6366,21.0063,1
26.6647,21.0174,1
26.6927,21.0284,1
26.7207,21.0395,1
26.7487,21.0505,1
26.7768,21.0615,1
26.8048,21.0725,1
26.8328,21.0836,1
26.8609,21.0946,1
26.8889,21.1056,1
26.9169,21.1166,1
26.9449,21.1276,1
26.973,21.1385,1
27.001,21.1495,1
27.029,21.1605,1
27.0571,21.1715,1
27.0851,21.1824,1
27.1131,21.1934,1
27.1411,21.2043,1
27.1692,21.2153,1
27.1972,21.2262,1
27.2252,21.2372,1
27.2533,21.2481,1
27.2813,21.259,1
27.3093,21.2699,1
27.3373,21.2808,1
27.3654,21.2918,1
27.3934,21.3027,1
27.4214,21.3135,1
27.4494,21.3244,1
27.4775,21.3353,1
27.5055,21.3462,1
27.5335,21.3571,1
27.5616,21.3679,1
27.5896,21.3788,1
27.6176,21.3897,1
27.6456,21.4005,1
27.6737,21.4114,1
27.7017,21.4222,1
27.7297,21.433,1
27.7578,21.4439,1
27.7858,21.4547,1
27.8138,21.4655,1
27.8418,21.4763,1
27.8699,21.4871,1
27.8979,21.4979,1
27.9259,21.5087,1
27.954,21.5195,1
27.982,21.5303,1
28.01,21.5411,1
28.038,21.5518,1
28.0661,21.5626,1
28.0941,21.5734,1
28.1221,21.5841,1
28.1502,21.5949,1
28.1782,21.6056,1
28.2062,21.6164,1
28.2342,21.6271,1
28.2623,21.6379,1
28.2903,21.6486,1
28.3183,21.6593,1
28.3463,21.67,1
28.3744,21.6807,1
28.4024,21.6914,1
28.4304,21.7021,1
28.4585,21.7128,1
28.4865,21.7235,1
28.5145,21.7342,1
28.5425,21.7449,1
28.5706,21.7556,1
28.5986,21.7662,1
28.6266,21.7769,1
28.6547,21.7875,1
28.6827,21.7982,1
28.7107,21.8088,1
28.7387,21.8195,1
28.7668,21.8301,1
28.7948,21.8408,1
28.8228,21.8514,1
28.8509,21.862,1
28.8789,21.8726,1
28.9069,21.8832,1
28.9349,21.8938,1
28.963,21.9044,1
28.991,21.915,1
29.019,21.9256,1
29.047,21.9362,1
29.0751,21.9468,1
29.1031,21.9574,1
29.1311,21.9679,1
29.1592,21.9785,1
29.1872,21.9891,1
29.2152,21.9996,1
29.2432,22.0102,1
29.2713,22.0207,1
29.2993,22.0313,1
29.3273,22.0418,1
29.3554,22.0523,1
29.3834,22.0629,1
29.4114,22.0734,1
29.4394,22.0839,1
29.4675,22.0944,1
29.4955,22.1049,1
29.5235,22.1154,1
29.5516,22.1259,1
29.5796,22.1364,1
29.6076,22.1469,1
29.6356,22.1574,1
29.6637,22.1678,1
29.6917,22.1783,1
29.7197,22.1888,1
29.7477,22.1992,1
29.7758,22.2097,1
29.8038,22.2201,1
29.8318,22.2306,1
29.8599,22.241,1
29.8879,22.2515,1
29.9159,22.2619,1
29.9439,22.2723,1
29.972,22.2827,1
30.0,22.2931,1
